"图解2"
"平动位移 - Z (mm)","角位移1 (deg)"
-262.421770012226,-94.6193464955926
-262.74879330926,-94.6050876899932
-262.79454060418,-94.5940390399303
-262.797721399768,-94.5887613574945
-262.812414054981,-94.5241417936186
-262.83604383497,-94.4170557331698
-262.850778113019,-94.3537895663288
-262.869226136814,-94.2686644873297
-262.89404084314,-94.1620284394804
-262.90578464641,-94.1127936697301
-262.912469023937,-94.0804798111448
-262.928019988902,-94.0191716491548
-262.964782336059,-93.853301418448
-263.024087599097,-93.5887325671906
-263.091871698646,-93.2880323798695
-263.168360028675,-92.9530352503041
-263.252911669329,-92.584859809365
-263.292063126694,-92.4218131489681
-263.348776375451,-92.1856584135665
-263.449758982708,-91.7565964563577
-263.451628438844,-91.7481876195348
-263.523202647268,-91.4438793749604
-263.559305154245,-91.2993785309639
-263.633720170888,-90.9891316212444
-263.676738903926,-90.8147285140225
-263.690533249826,-90.7603032182796
-263.800406066958,-90.3064210673337
-263.931250227825,-89.7753084888732
-264.069850758757,-89.2230219728246
-264.214873783869,-88.6514405267506
-264.233365138933,-88.5882762766621
-264.34008797487,-88.1763111568483
-264.369502409225,-88.061906253249
-264.528881767092,-87.4572328657503
-264.534044051324,-87.4390960629162
-264.693766679536,-86.8368528104669
-264.866420351293,-86.2044341181084
-265.045527789015,-85.5617150447172
-265.050142866737,-85.5452199900559
-265.228975349954,-84.9076870656084
-265.356401841068,-84.4660623441105
-265.419425735656,-84.2460810959653
-265.612885467604,-83.5879056869421
-265.615592763653,-83.5779031190365
-265.815565981011,-82.9040340527754
-266.020193782662,-82.2257239999682
-266.232209417193,-81.545087504269
-266.448125558549,-80.8622062518171
-266.668785868602,-80.1784164949204
-266.690942527609,-80.1141617858982
-266.898409503199,-79.4946039682527
-267.128201196567,-78.8119541876955
-267.36386396956,-78.1314160882964
-267.36948238882,-78.1146888988412
-267.601490061965,-77.4530382461419
-267.844305596354,-76.7782340309384
-268.090260306634,-76.1073457139715
-268.241555304521,-75.7067416794369
-268.341701867671,-75.4410400582799
-268.595276459109,-74.7798003298192
-268.852699900607,-74.1240882385843
-269.112648203007,-73.4743082628718
-269.375755940575,-72.8308215626639
-269.641979412092,-72.193931791802
-269.910668038248,-71.5639197450424
-270.067137045791,-71.2131096113
-270.18596850943,-70.9410280446193
-270.459821229308,-70.3253342951559
-270.733106532903,-69.7260291405683
-270.7369562124,-69.7171042439771
-271.014449997561,-69.1164386164399
-271.119709435668,-68.8930344991307
-271.294682488499,-68.5234042188004
-271.577985868864,-67.9380038184296
-271.730959403298,-67.6294284744753
-271.862585004991,-67.3603471958508
-271.947998706421,-67.1886023555257
-272.148914534434,-66.7904274007204
-272.232066791729,-66.6276810075677
-272.435059473104,-66.2281939264506
-272.721632711478,-65.6735412107971
-273.008675194245,-65.1266258825576
-273.29703650891,-64.5870794222971
-273.585711412566,-64.0550858117053
-273.874756242267,-63.5305542918787
-274.163968173045,-63.0133287846836
-274.456003443156,-62.5030071435996
-274.744416808769,-62.0004204452327
-275.033749045881,-61.5042273209993
-275.058211507832,-61.4635314697614
-275.296365939934,-61.0623231455767
-275.324999130942,-61.0149372606552
-275.382292188854,-60.9193863397626
-275.460960951941,-60.7905131652582
-275.569479474416,-60.6168734508334
-275.620628287439,-60.5330074485518
-275.658086878552,-60.472800074298
-275.761887696584,-60.3045993833057
-275.90441620563,-60.073510350093
-275.914296860258,-60.0573022194879
-276.198411833469,-59.5870884250532
-276.370936084144,-59.3058933254143
-276.4828330299,-59.1231631853961
-276.764705121917,-58.6654590662367
-277.047329434913,-58.2136469049387
-277.055999722828,-58.2005366515369
-277.151913416744,-58.0502446628116
-277.329335700699,-57.7684754660719
-277.605988194758,-57.3291724284141
-277.698768314388,-57.1845290951899
-277.882549878093,-56.8950373208367
-278.07738469743,-56.5940448288023
-278.159245971178,-56.4666741340081
-278.256610285807,-56.3170542243705
-278.432444410529,-56.0439154484358
-278.496481692533,-55.9489427701635
-278.606846612673,-55.7859466881699
-278.709453990042,-55.6274048348033
-278.778716443984,-55.5246441666651
-278.979682381339,-55.2154904398203
-279.026444943159,-55.1495095892696
-279.230511011106,-54.8379227259586
-279.249284251323,-54.8088202491452
-279.34533392964,-54.6651879100179
-279.514792799157,-54.4072550408747
-279.774144818203,-54.0111327027353
-279.858977727816,-53.8874678845493
-279.961589767395,-53.7433152789649
-280.043277897095,-53.6214258901684
-280.299659573262,-53.2338741279958
-280.306037238318,-53.2262708179772
-280.401655531854,-53.083618754755
-280.552018853543,-52.854397840244
-280.631476083931,-52.7382423025692
-280.806486178996,-52.4782964690359
-281.050326931128,-52.1075328031461
-281.29151062178,-51.7411988526633
-281.529459846001,-51.3797050499262
-281.763930312262,-51.023227696596
-281.994748181062,-50.6718957051523
-282.221790077498,-50.325824741389
-282.444962297736,-49.9850988975128
-282.664243332987,-49.6497796570935
-282.810526667392,-49.4272906019254
-282.880156176564,-49.3203817350486
-282.977805724087,-49.1721556190261
-283.092199319189,-48.996085696485
-283.120110445537,-48.9539292009655
-283.262589316391,-48.736237276954
-283.300072610118,-48.6783149713851
-283.412995652472,-48.5050959516446
-283.503407790649,-48.3653651599785
-283.571018883723,-48.2622707985751
-283.691780767767,-48.0756684084105
-283.702341048682,-48.0592126564041
-283.896572256864,-47.758454773122
-284.085979686215,-47.4647885688063
-284.191435412342,-47.302689823097
-284.271030439139,-47.1777717608641
-284.299830501719,-47.1337690538229
-284.354258249325,-47.0487023856574
-284.450859760832,-46.8975160166566
-284.500753353935,-46.8202049612834
-284.625498990136,-46.6239821248856
-284.660360934522,-46.570226795479
-284.760188975617,-46.413827567364
-284.794794947627,-46.3584388725922
-284.958301301778,-46.0996147227712
-284.970508168069,-46.0814312858934
-285.116377060127,-45.8492570299026
-285.268215714064,-45.6064083404753
-285.34466679049,-45.4855513782394
-285.414713654249,-45.3754012957415
-285.414947347862,-45.3750249832815
-285.54762799187,-45.1633437746321
-285.556207378702,-45.1492503266079
-285.654496909188,-44.9907043177078
-285.690201470021,-44.9318664450942
-285.728040920727,-44.8731092626581
-285.818157416675,-44.7254033704789
-285.907856441999,-44.5802975397682
-285.939036619053,-44.5285703618652
-285.957919716364,-44.5000357009838
-286.027446411221,-44.3864728780179
-286.053685736745,-44.3425059095514
-286.145734372852,-44.1942979976691
-286.162513739171,-44.1673035906535
-286.263162930954,-44.001340903537
-286.356258066938,-43.8471009839202
-286.400456977052,-43.7773577679199
-286.444353259686,-43.7082036983345
-286.444453964153,-43.7080713900834
-286.49621846008,-43.6241838710433
-286.525052653208,-43.5751966919694
-286.565456309707,-43.5100284510107
-286.59633067596,-43.4572899560198
-286.659452565208,-43.3517632135215
-286.665081930121,-43.344692237728
-286.715178938366,-43.2594960597036
-286.762395158156,-43.1804495607666
-286.79674246171,-43.1286537060173
-286.807888567379,-43.1171080128359
-286.838477360929,-43.0662212224688
-286.860856144794,-43.0285062563609
-286.874378222812,-43.0062900694706
-286.879379140603,-42.9990480378967
